id,frame,x [nm],y [nm],sigmax [nm],sigmay [nm],intensity [photon],offset [photon],uncertainty [nm],centroid [nm],bgstd,z [nm],z uncertainty,ydif,centroid2,fwhm0,fwhm1
1,2,3734.3,15512,216.23,669.62,-569.77,243.58,243.58,312.73,251.88,17.856,14.601,20.602,5660.6,6460.7,4860.5,296.28,265.29,327.27,27.94,31.016,24.864
8,9,5824.8,16441,-51.165,662.29,-722.06,145.28,145.28,275.63,218.27,25.351,27.751,22.697,2439.6,886.17,3993.1,409.96,383.5,436.43,26.233,22.865,29.6
15,15,19924,4696.8,12.655,672.13,-519.01,133.85,133.85,237.35,186.26,9.4658,6.7239,11.575,7217.4,5962.8,8472.1,212.16,233.4,190.91,43.21,43.059,43.361
22,25,649.91,5195.8,-59.606,668.2,-598.75,125.71,125.71,242.84,190.64,12.101,5.7434,16.12,2534.4,2506,2562.7,177.54,167.24,187.85,16.698,16.238,17.158
29,32,3236,15263,483.52,671.29,-535.81,340.49,340.49,297.03,237.4,14.146,11.002,16.708,11010,14383,7637.1,222.24,197.45,247.04,30.892,26.296,35.487
36,41,20035,7751.7,-179.8,669.2,-578.23,121.08,121.08,260.8,205.49,12.893,3.7857,17.837,3135.1,3161.8,3108.4,183.28,166.1,200.45,16.635,13.211,20.06
43,48,18155,10893,-472.35,660.51,-760.08,137.44,137.44,326.02,264.37,14.471,4.3629,19.994,5687.1,6480.3,4893.8,332.99,290.57,375.41,24.75,27.364,22.136
50,55,23643,21780,254.37,668.72,-588.16,149.71,149.71,141.87,145.79,22.832,8.4823,31.155,2681.6,4448.3,915.02,506.8,435.03,578.57,29.749,32.339,27.159
57,61,23592,21080,238.98,663.41,-698.31,147.4,147.4,178.07,147.07,26.091,7.2599,36.177,2676.9,4363.7,990.08,417.54,368.14,466.95,27.308,27.62,26.996
64,69,2742.4,17280,-54.44,670.24,-557.17,155.9,155.9,294.48,235.09,11.276,6.6116,14.512,6487.7,7251.2,5724.3,199.75,195.53,203.97,30.49,37.751,23.228
71,78,3510,13188,-27.1,668.74,-587.7,158.14,158.14,290.06,231.1,10.688,6.6398,13.579,8199.1,9807.1,6591,206.1,196.77,215.43,38.121,50.364,25.877
78,84,23736,21725,-293.62,666.11,-641.88,124.84,124.84,286.06,227.5,13.256,4.7832,18.126,7904.9,7139,8670.8,560.53,503.04,618.02,44.532,41.453,47.611
85,91,23669,21916,-0.33424,669.94,-563.26,160.43,160.43,285.43,226.95,14.561,11.537,17.058,4658.9,3376.3,5941.5,430.24,395.89,464.6,29.946,29.282,30.611
92,96,4158.1,14537,-25.073,665.43,-656.11,116.57,116.57,215.7,169.95,13.84,6.813,18.349,2626.6,2561.4,2691.9,326.66,315.46,337.86,25.163,24.011,26.315
99,104,8314.8,16867,183.45,669.2,-578.34,203.24,203.24,278.97,221.21,20.092,8.9542,26.967,7947.7,10732,5163.1,421.49,329.1,513.88,44.943,45.258,44.629
106,113,19627,4531.9,106.37,671.39,-533.93,133.49,133.49,206.06,163.27,19.949,8.2385,26.982,1503.2,1686.1,1320.3,182.76,169.09,196.44,17.482,14.226,20.738
113,119,10689,18266,-21.681,671.89,-523.85,142.69,142.69,262.8,207.18,15.239,6.6323,20.506,5679.6,5940.6,5418.6,381.69,353.95,409.43,38.606,37.002,40.209
120,130,7042.2,11681,148.53,667.51,-613.04,636.02,636.02,760.85,730.46,5.5092,5.4505,5.5673,1.2198e+05,94151,1.4981e+05,2.6312e-10,5.2592e-10,3.0863e-13,25.741,23.399,28.083
127,138,2922.5,15000,195.19,670.26,-556.71,215.67,215.67,289.38,230.49,14.237,12.031,16.145,4363.8,4378,4349.6,204.69,206.83,202.55,21.047,21.727,20.366
134,145,9077.1,6415.2,-40.51,669.5,-572.17,115.09,115.09,216.94,170.84,15.403,8.104,20.219,1757.3,1710.1,1804.5,221.96,202.5,241.41,19.323,19.518,19.127
141,154,4718.3,16238,48.354,670.07,-560.64,142.4,142.4,240.85,189.05,12.998,3.9082,17.961,5925.1,7893.5,3956.7,350.78,327.24,374.31,29.063,27.563,30.564
148,162,21915,21665,489.27,666.68,-630,614.5,614.5,485.04,425.4,9.7825,5.5214,12.685,85595,1.4536e+05,25835,185.54,2.8905e-08,371.08,35.714,40.545,30.882
155,170,4736.1,16244,160.02,671.46,-532.49,151.19,151.19,216.64,170.62,24.162,12.63,31.75,1693.4,1963.5,1423.4,362.53,311.29,413.77,22.436,20.807,24.065
162,175,22991,21616,234.39,670.92,-543.43,177.74,177.74,227.47,178.62,12.428,7.617,15.839,6226.1,7548.1,4904.1,417.24,399.65,434.82,36.209,34.932,37.486
169,183,806.72,14802,-42.215,671.13,-539.12,130.76,130.76,247.58,194.48,12.497,6.951,16.25,3520.7,2981.1,4060.2,183.86,183.66,184.06,24.661,22.619,26.702
176,189,18903,13172,-49.831,664.7,-671.19,136.49,136.49,259.94,204.76,18.402,9.0233,24.41,2605.3,2664.9,2545.7,284.37,243.66,325.07,23.718,24.566,22.871
183,195,15075,18150,917.99,668.16,-599.65,271.32,271.32,158.85,140.87,28.243,17.391,35.956,3954.2,7023.9,884.6,401.1,343.25,458.95,30.289,32.513,28.064
190,203,5310.7,14345,-364.77,668.49,-592.75,471.32,471.32,495.62,884.14,8.1577,7.1471,9.0562,48303,34238,62369,214,176.82,251.18,22.554,20.525,24.583
197,211,15023,18288,286.45,665.76,-649.25,747.38,747.38,727.06,692.05,5.6953,4.3457,6.7814,1.4243e+05,1.4692e+05,1.3794e+05,67.349,9.4714e-08,134.7,27.975,20.372,35.579
204,220,5945.3,15390,45.523,672.38,-514.03,139.27,139.27,236.52,185.61,26.192,9.7093,35.745,2095.9,2448.1,1743.7,387.23,341.83,432.63,25.693,23.349,28.036
211,226,18833,14664,-83.085,665.32,-658.22,290.11,290.11,509.18,451.12,12.139,12.668,11.586,15983,7611.4,24354,220.07,191.92,248.22,22.834,22.044,23.625
218,229,19811,21860,77.047,665.85,-647.34,313.95,313.95,225.76,400.55,18.204,13.619,21.847,9823.2,12993,6653.7,426.51,376.84,476.19,33.333,35.065,31.601
225,238,6190,16863,161.73,667.19,-619.6,364.82,364.82,471.07,410.63,14.192,8.5664,18.15,23168,25962,20375,291.53,233.65,349.4,34.858,32.138,37.577
232,248,21706,21196,257.27,671.92,-523.31,340.08,340.08,392.64,329.67,16.699,8.4151,22.066,14487,18139,10834,329.82,260.96,398.67,30.744,25.105,36.382
239,255,6165.7,15388,58.018,672.39,-513.73,159.55,159.55,264.97,209.04,12.265,11.069,13.354,6159.6,5270.7,7048.5,433.5,409.42,457.58,38.954,44.776,33.132
246,261,17686,14273,-221.66,671.56,-530.43,198.84,198.84,410.47,347.74,15.711,16.741,14.608,10392,6091.5,14693,325.28,306.59,343.97,40.071,50.84,29.302
253,267,6812.2,13556,-116.66,670.69,-547.97,138.51,138.51,280.61,222.66,15.628,5.6581,21.364,4561.6,5126.3,3997,368.33,326.92,409.75,27.522,28.259,26.784
260,270,22978,21691,71.977,672.07,-520.26,145.01,145.01,237.44,186.33,25.019,16.205,31.453,2412.7,2690.1,2135.3,484.15,447.72,520.59,35.333,40.71,29.956
267,282,18915,14561,-52.524,672.17,-518.3,226.92,226.92,404.28,341.44,16.726,17.349,16.08,7601.1,3615.4,11587,280.34,249.98,310.71,24.999,23.707,26.291
274,290,18713,14587,395.27,671.64,-528.91,803.93,803.93,349.42,631.46,10.515,6.0776,13.572,72087,1.2689e+05,17282,152.07,9.5889e-14,304.14,21.275,22.097,20.453
281,296,10142,15377,334.8,662.24,-723.14,567.33,567.33,542.93,487.48,11.93,5.6335,15.904,57320,90267,24374,221.79,30.395,413.18,29.132,29.686,28.579
288,306,22005,21929,155.38,671.28,-536.17,351.87,351.87,460.89,399.93,16.176,18.788,13.051,16235,11358,21112,430.49,412.39,448.59,31.44,33.839,29.04
295,312,21870,21743,921.05,672.05,-520.57,414.22,414.22,271.82,214.94,16.878,9.8002,21.764,16247,28685,3810.2,352.34,247.31,457.37,29.743,31.642,27.843
302,317,21635,21734,551.94,670.36,-554.74,307.25,307.25,251.64,197.82,23.373,21.914,24.745,5354.1,6890.9,3817.2,424.03,385.17,462.89,34.443,31.447,37.439
309,323,9175.1,12032,-114.93,671.36,-534.57,152.19,152.19,304.51,244.26,13.693,7.8093,17.721,5167.9,3893.5,6442.4,347.64,312.8,382.48,27.435,24.827,30.042
316,332,15528,11599,-31.915,669.9,-564.09,141.59,141.59,263.86,208.09,14.226,8.7848,18.099,4275.1,3846.1,4704.2,429.06,403.72,454.39,31.391,32.415,30.367
323,335,22107,21258,99.133,671.49,-531.88,178.07,178.07,277.73,220.12,16.024,12.187,19.106,5375.7,4079.7,6671.8,467.79,439.14,496.45,35.742,30.423,41.06
330,338,12856,18007,382.91,672.73,-507.04,349.02,349.02,341.42,279.1,16.726,16.229,17.209,11854,12739,10969,373.96,348.03,399.9,36.077,33.23,38.925
337,345,2763.2,14386,-19.952,670.3,-555.87,144.07,144.07,264.63,208.75,8.8286,5.0454,11.421,8106.7,7363.5,8849.9,240.91,269.84,211.98,34.592,33.586,35.598
344,350,20699,21189,63.167,673.26,-496.4,189.12,189.12,306.42,246.02,17.042,13.261,20.124,4966.9,3535.6,6398.1,439.56,404.8,474.32,29.467,25.37,33.565
351,362,12968,5638.8,-29.761,668.45,-593.61,396.35,396.35,628.16,581.03,10.916,12.226,9.4252,33015,22697,43334,195.34,199.05,191.64,27.82,34.405,21.235
358,369,18541,12087,-104.61,668.89,-584.54,163.23,163.23,320.74,259.39,18.648,16.261,20.763,3958.4,2939.8,4977,321.28,283.73,358.84,29.718,35.151,24.286
365,378,22893,21218,387.75,670.63,-549.34,177.82,177.82,149.5,141.19,22.331,8.7922,30.332,3143.6,5387.2,900.02,474.84,400.85,548.82,27.073,28.693,25.453
372,386,7097.7,17681,-253.41,667.32,-616.92,134.06,134.06,298.92,239.13,18.519,13.797,22.262,3045.4,1754.7,4336.2,362.85,337.86,387.83,26.291,26.101,26.48
379,389,22998,20678,203.86,671.59,-529.85,168.84,168.84,226.67,178.01,9.895,7.0365,12.096,9291.7,9068.6,9514.8,386.77,368.2,405.35,49.607,43.167,56.047
386,396,9087.6,18078,261.94,670.68,-548.18,207.74,207.74,254.16,199.91,23.372,23.366,23.379,4374.6,5283.4,3465.9,437.62,391.08,484.17,43.999,56.624,31.375
393,404,17653,12050,-251.14,662.52,-717.13,126.08,126.08,282.8,224.6,13.35,6.3404,17.784,3894.2,3206,4582.3,321.8,286.91,356.7,24.405,23.793,25.016
400,410,13842,13702,99.815,669.16,-579.09,343.29,343.29,483.66,423.93,13.641,10.049,16.468,18898,19550,18247,347.9,290.27,405.53,30.427,32.235,28.618
407,416,3338.5,15002,220.01,661.66,-735.35,204.88,204.88,266.79,210.6,19.083,17.519,20.528,3116.7,2461.8,3771.6,252.64,252.87,252.4,23.447,19.906,26.988
414,423,18817,14556,675.24,666.44,-635.03,609.44,609.44,413.76,351.1,14.753,6.7704,19.735,35761,62552,8969.1,161.51,31.226,291.79,22.503,21.217,23.79
421,427,20427,21527,-270.74,669.94,-563.28,114.32,114.32,261.3,205.91,15.639,6.5965,21.11,3968.9,3239,4698.8,461.35,437.5,485.19,33.627,30.961,36.292
428,431,18822,14590,749.58,667.89,-605.12,617.32,617.32,402.27,339.4,13.331,6.4048,17.731,39217,69375,9058.4,136.63,6.8963e-09,273.26,22.267,21.641,22.893
435,437,22052,21212,190.4,671.55,-530.65,176.52,176.52,242.13,190.07,10.233,7.6266,12.298,8687.7,7958.8,9416.5,449.5,455.18,443.83,43.427,37.49,49.363
442,446,12911,10264,-187.86,667.79,-607.09,221.74,221.74,440.49,378.64,14.36,10.899,17.136,11175,8883.4,13466,372.33,332.68,411.98,32.672,38.337,27.007
449,451,1892.4,3243.5,57.558,666.88,-626.04,123.85,123.85,204.69,162.36,13.496,6.6806,17.879,1805.6,2002.3,1609,185.86,169.62,202.09,16.214,15.744,16.684
456,462,10275,11797,71.456,662.74,-712.6,128.14,128.14,208.29,164.78,15.154,6.0575,20.557,3183.9,3731.3,2636.4,376.11,344.14,408.08,28.333,25.669,30.996
463,465,23421,20802,32.223,664.3,-679.66,156.37,156.37,268.58,212.14,17.941,17.215,18.639,4204.2,3118,5290.5,408.21,359.83,456.59,38.579,43.182,33.975
470,479,5660.7,16789,-303.24,665.07,-663.49,165.27,165.27,365.48,302.57,13.457,10.909,15.594,7783,4032.2,11534,338.51,331.56,345.46,31.478,31.165,31.791
477,485,21442,21625,110.01,671.92,-523.2,156.39,156.39,242.38,190.27,19.481,11.222,25.161,3452.9,4314.1,2591.6,444.27,403.73,484.82,33.175,38.553,27.797
484,494,18156,9139.3,159.85,667.8,-607.06,215.37,215.37,303.27,243.11,14.51,12.656,16.153,7278.3,7829.7,6726.9,271,232.5,309.49,35.285,41.803,28.767
491,501,12598,17882,-182.13,669.37,-574.75,167.61,167.61,347.49,284.97,34.809,18.077,45.788,2880.6,2746.7,3014.4,365.89,326.35,405.43,31.131,34.681,27.582
498,508,18382,12881,-25.264,663.6,-694.38,267.67,267.67,451.71,390.31,16.036,13.169,18.463,11991,9676,14305,315.87,265.69,366.05,32.018,34.702,29.334
505,518,3280.8,6422.6,-188.7,665.48,-655.02,162.04,162.04,339.12,276.88,20.948,24.511,16.64,3692.1,1159.3,6224.9,188.38,190.53,186.23,21.277,21.162,21.392
512,524,10943,8188.5,926.94,660.13,-768.09,278.81,278.81,172.17,144.54,21.132,14.189,26.302,4046.1,6388,1704.2,361.73,272.73,450.72,29.035,22.536,35.533
519,528,15388,11362,157.86,665.2,-660.89,227.58,227.58,318.92,257.67,9.692,8.9794,10.356,11224,9736,12711,386.97,355.01,418.93,31.743,32.523,30.964
526,536,10270,9886.6,536.24,670.82,-545.34,288.67,288.67,240.89,189.08,12.429,13.501,11.255,14153,19921,8384.2,321.56,245.27,397.85,52.023,63.633,40.414
533,543,9220.5,17263,150.57,665.67,-650.96,257.41,257.41,357.49,294.72,13.876,15.965,11.41,10935,6413.4,15457,327.26,286.06,368.47,31.34,30.183,32.496
540,547,15559,6513.7,48.55,661.91,-730.06,124.32,124.32,208.63,165.01,16.626,5.6745,22.817,2475.2,3234.2,1716.3,287.16,255.63,318.68,21.996,21.753,22.239
547,550,3119.4,17821,-289.16,668.69,-588.63,125.86,125.86,287.58,228.87,14.44,12.04,16.494,3097.9,1605.6,4590.2,213.49,234.79,192.2,22.888,23.453,22.324
554,559,8932.7,17161,191,673.14,-498.76,168.72,168.72,231.23,181.49,15.676,16.402,14.915,3969.2,2755.8,5182.6,460.3,424.37,496.22,33.548,31.043,36.054
561,567,2851.1,15002,354.77,671.65,-528.59,296.74,296.74,307.89,247.38,15.495,12.587,17.937,6770.9,8507.7,5034.2,194.32,184.12,204.53,23.263,23.446,23.079
568,576,19929,21849,80.3,668.93,-583.84,201.54,201.54,317.09,255.95,14.029,14.264,13.79,9325.6,6652.3,11999,402.66,400.96,404.36,42.905,45.878,39.931
575,582,3045.4,17726,247.04,669.59,-570.28,237.76,237.76,293.52,234.22,9.5592,8.4236,10.573,8951.5,10607,7296,179.69,163.65,195.73,25.854,30.302,21.406
582,588,19371,21831,-249.63,662.25,-722.89,133.16,133.16,296.58,237,20.536,14.685,25.057,2427.8,1475.6,3379.9,390.14,366.98,413.31,23.641,23.654,23.627
589,601,20576,21004,-100.2,664.15,-682.69,264.34,264.34,478.29,418.24,15.575,17.143,13.831,14664,7576,21752,318.59,349.28,287.89,32.873,36.48,29.266
596,608,17004,9668.2,39.325,667.01,-623.17,151.28,151.28,258.21,203.3,26.974,28.508,25.347,1720.3,927.87,2512.8,367.47,316.86,418.08,23.244,22.69,23.798
603,615,19928,4729.6,-27.932,669.18,-578.8,125.78,125.78,234.46,184,14.105,6.9907,18.682,1981.9,2050.3,1913.6,185.46,177.3,193.62,16.238,16.5,15.975
610,621,17750,8417.3,-262.02,666.73,-629.12,130.55,130.55,293.29,234.01,12.957,10.269,15.176,4697.5,2679.5,6715.5,307.54,296.77,318.31,30.059,31.17,28.948
617,626,2833,14291,59.193,666.56,-632.54,159.96,159.96,265.2,209.24,13.842,6.8419,18.341,4177.1,4526.4,3827.9,195.62,184.69,206.55,23.633,22.587,24.679
624,639,7677.7,11240,377.21,667.73,-608.36,264.98,264.98,270.35,213.67,14.763,11.794,17.228,5410.2,6185.3,4635.1,233.1,212.13,254.08,23.414,19.849,26.979
631,642,13215,16739,69.205,667.9,-604.82,139.29,139.29,228.88,179.69,18.95,7.2852,25.79,2655.3,3128.9,2181.7,380.9,348.78,413.03,24.427,21.96,26.893
638,646,17151,12044,-324.69,672.87,-504.14,126.85,126.85,293.76,234.43,15.875,11.173,19.473,3546.1,1892.6,5199.5,346.29,324.79,367.79,27.03,25.255,28.805
645,651,6896.3,11714,113.84,671.34,-534.95,200.69,200.69,302.91,242.79,14.936,15.496,14.354,7983.4,4174.7,11792,273.5,290.22,256.78,38.29,31.377,45.203
652,659,8112.8,6914.3,142.26,672.48,-512.07,161.27,161.27,238.26,186.98,16.476,13.698,18.848,2400.4,1856.4,2944.4,209.72,197.17,222.27,21.52,18.737,24.303
659,668,14322,16099,57.195,670.19,-558.07,206.63,206.63,333.02,271.03,13.725,12.765,14.623,6935.7,4945.8,8925.6,374.12,346.4,401.83,28.417,28.687,28.147
666,672,23086,21823,-241.97,671.83,-524.98,129.14,129.14,287.49,228.79,16.391,9.3927,21.193,3680.6,2840.5,4520.7,409.2,393.56,424.83,29.675,30.776,28.574
673,678,15207,10513,77.805,673.14,-498.89,167.81,167.81,270.58,213.87,20.319,11.564,26.305,3937.8,4641.9,3233.7,409.23,363.95,454.51,33.029,37.125,28.933
680,682,20747,21508,-367.49,671.18,-538.21,136.57,136.57,317.59,256.42,19.659,12.901,24.627,3330.6,2049.8,4611.4,429.68,413.72,445.64,27.434,27.463,27.406
687,692,5396.3,16947,590.3,670.18,-558.28,350.31,350.31,274.04,216.88,12.965,10.833,14.794,9753.8,13336,6172,313.18,265.22,361.14,26.244,22.536,29.953
694,705,7470.9,18625,246.84,668.73,-587.81,162.48,162.48,201.25,160.11,20.07,9.777,26.647,3828.1,5863.9,1792.2,343.2,297.7,388.71,35.714,42.252,29.176
701,715,8251.2,14032,-26.621,666.76,-628.5,124.14,124.14,231,181.31,13.668,5.881,18.413,4392,4433.8,4350.1,392.67,363.4,421.95,34.752,31.913,37.592
708,729,9481.1,7709.9,542.37,668.55,-591.69,305.24,305.24,252.56,198.58,12.835,9.1588,15.672,8764.5,12159,5370.4,230.83,194.32,267.33,27.768,22.716,32.821
715,734,20142,21283,-195.09,669.75,-567.18,153.06,153.06,324.32,262.77,13.012,10.753,14.933,7149.3,5328,8970.7,410.06,391.33,428.8,39.243,47.812,30.674
722,739,10405,9567.7,198.21,671.85,-524.67,277.23,277.23,357.66,294.88,15.343,16.938,13.561,12402,7511.9,17291,329.1,315.52,342.67,38.011,32.423,43.6
729,748,7063.8,18388,58.889,672,-521.58,265.47,265.47,410.13,347.4,25.387,33.295,13.434,10507,3924.3,17089,340.14,338.98,341.3,34.031,36.677,31.386
736,751,8278.1,18857,36.894,670.05,-561.09,133.75,133.75,229.71,180.33,13.617,8.0136,17.511,4949.1,5383.7,4514.6,365.16,342.96,387.35,42.133,46.785,37.481
743,754,17864,8199.9,-287.44,666.51,-633.58,145.22,145.22,325.46,263.84,9.8776,7.6779,11.67,5774.5,3151.2,8397.8,253.42,236.76,270.08,21.689,21.493,21.885
750,760,15244,15548,-15.947,664.09,-684.14,136.85,136.85,251.07,197.35,15.833,5.4803,21.71,4423.1,5636.5,3209.7,345.08,310.15,380.01,29.261,30.939,27.583
757,767,2656.9,16924,174.39,669.25,-577.27,159.41,159.41,223.93,175.95,10.669,8.8922,12.189,9189.3,6072.9,12306,275.63,335.51,215.74,58.157,41.217,75.097
764,772,21865,21747,-148.65,672.43,-512.99,148.98,148.98,306.93,246.49,9.1952,6.1632,11.451,11417,9529.5,13305,492.27,478.89,505.65,45.178,51.079,39.277
771,777,9212.4,14484,155.28,667.7,-608.94,146.55,146.55,210.92,166.58,16.906,5.2697,23.321,3877.6,5657.5,2097.7,384.86,341.78,427.94,26.491,25.65,27.332
778,785,23219,20763,483.38,672.87,-504.17,456.83,456.83,381.6,318.58,8.9293,8.8044,9.0524,50916,74535,27297,140.67,1.2425e-08,281.33,50.498,61.575,39.42
785,794,15403,9176.8,23.303,673.29,-495.76,143.9,143.9,251.28,197.52,19.975,10.785,26.109,4351.2,4256.7,4445.6,583.9,548.46,619.34,44.754,43.248,46.259
792,802,5441.2,16005,110.5,665.16,-661.57,161.19,161.19,249.39,195.96,21.063,11.957,27.283,2334.2,2690.5,1978,358.11,308.77,407.46,22.737,23.822,21.651
799,807,10825,8927.9,644.67,666.55,-632.74,247.46,247.46,175.63,145.97,19.024,15.824,21.759,4284,6791.8,1776.2,367.93,309.62,426.23,31.978,34.361,29.594
806,811,21961,21730,73.398,671.32,-535.26,140.05,140.05,228.76,179.6,17.376,7.8593,23.283,3029.9,3220.2,2839.5,412.94,369.54,456.33,28.02,24.382,31.658
813,821,20569,20512,64.712,672.65,-508.66,139.85,139.85,231.29,181.54,11.242,6.7146,14.411,6241.2,5945.8,6536.6,298.85,288.76,308.94,41.59,39.14,44.041
820,831,12721,15800,294.95,665.96,-645.01,320.57,320.57,355.66,292.93,13.932,12.448,15.273,10457,10624,10291,365.76,337.72,393.8,27.138,24.848,29.428
827,836,3919.8,15474,176.97,666.74,-628.76,220.03,220.03,301.94,241.9,10.743,11.037,10.44,10967,7738,14196,311.62,364.75,258.48,36.877,34.257,39.496
834,844,23717,21763,222.45,670.87,-544.32,184.05,184.05,240.14,188.47,26.387,13.662,34.726,2876.4,3732.8,2019.9,426.13,367.72,484.54,29.945,29.271,30.62
841,849,23327,21690,-21.242,673.13,-499.03,117.15,117.15,215.8,170.02,12.137,6.4991,15.886,4719.3,4101.7,5336.9,453.86,419.16,488.56,41.264,37.08,45.449
848,857,514.08,21535,-73.769,672.39,-513.87,116.92,116.92,229.35,180.05,14.388,4.0032,19.95,2804.9,3568.7,2041,156.5,148.16,164.84,18.581,18.01,19.152
855,859,2857.5,20945,-194.13,671.68,-528.1,111.63,111.63,243.92,191.51,13.772,6.5989,18.324,2146.7,1390.8,2902.5,168.84,175.51,162.16,17.564,12.979,22.149
862,864,21757,21166,-44.868,661.77,-733.09,138.91,138.91,262.85,207.23,17.823,14.378,20.703,3424.1,2168.4,4679.9,462.21,432.55,491.88,33.242,31.497,34.988
869,870,3004.6,16587,-235.69,665.09,-663.04,305.25,305.25,589.83,538.68,13.611,16.342,10.171,19935,7159.2,32710,155.04,180.86,129.22,22.151,24.424,19.879
876,873,2514.2,15553,-36.195,671.61,-529.5,134.31,134.31,252.32,198.38,11.071,7.0139,13.997,4912.2,3642.8,6181.7,239.79,260.73,218.86,30.237,26.724,33.75
883,878,19323,21811,-61.908,672.17,-518.11,152.65,152.65,291.15,232.08,13.232,10.839,15.254,7201,6191.5,8210.4,436,428.23,443.76,46.397,56.49,36.304
890,887,18771,12373,22.679,672.62,-509.2,184.45,184.45,314.34,253.38,14.254,5.7786,19.312,6027,5488.1,6566,244.33,202.24,286.42,23.982,16.733,31.232
897,896,12520,17507,6.8769,669.43,-573.54,198.05,198.05,339.9,277.63,13.371,11.92,14.68,12425,12337,12514,373.29,322.47,424.11,56.034,73.93,38.138
904,902,5303.2,14603,315.18,666.4,-635.9,236.23,236.23,265.14,209.19,12.665,13.119,12.194,7927.6,6678.7,9176.6,293.28,279.14,307.43,34.97,30.535,39.404
