id,frame,x [nm],y [nm],sigmax [nm],sigmay [nm],intensity [photon],offset [photon],uncertainty [nm],centroid [nm],bgstd,z [nm],z uncertainty,ydif,centroid2,fwhm0,fwhm1
1,2,3734.3,15512,216.23,669.62,-569.77,243.58,243.58,312.73,251.88,17.856,14.601,20.602,5660.6,6460.7,4860.5,296.28,265.29,327.27,27.94,31.016,24.864
7,9,5840.3,12564,190.93,666.89,-625.75,329.97,329.97,417.56,354.99,10.604,10.097,11.088,15590,13763,17417,203.8,204.01,203.58,24.755,24.442,25.067
13,15,3219.1,15209,-46.881,670.81,-545.59,167.08,167.08,310.52,249.82,10.182,5.0187,13.497,10901,12177,9624.9,252.23,248.02,256.45,37.11,41.571,32.648
19,23,9686.5,12335,128.53,669.32,-575.86,131.67,131.67,194.41,155.85,20.433,8.3976,27.65,2045.2,2592.5,1498,388.58,343.32,433.84,25.334,23.772,26.895
25,28,15088,9349.6,235.42,670.25,-556.97,187.24,187.24,239.36,187.86,13.615,10.324,16.253,5462.4,4922.4,6002.3,428.57,356.75,500.4,35.277,27.907,42.646
31,38,18023,9259.5,-374.58,672.01,-521.36,176.73,176.73,395.53,332.58,12.014,9.6444,13.987,12223,9950.4,14496,336.32,296.03,376.6,45.117,60.215,30.02
37,43,23680,21749,-27.25,665.16,-661.63,209.94,209.94,369.82,306.86,16.246,10.025,20.672,9086.4,7602.4,10570,424.86,357.3,492.42,35.692,33.464,37.92
43,48,18155,10893,-472.35,660.51,-760.08,137.44,137.44,326.02,264.37,14.471,4.3629,19.994,5687.1,6480.3,4893.8,332.99,290.57,375.41,24.75,27.364,22.136
49,55,14513,18461,184.67,671.97,-522.32,239.43,239.43,321.51,260.11,11.991,7.7965,15.06,9888.5,10448,9328.6,354.07,295.82,412.32,29.925,27.016,32.835
55,60,22675,21359,165.19,665.36,-657.53,660.27,660.27,768.54,739.24,5.5689,5.7393,5.3932,1.4587e+05,1.2701e+05,1.6472e+05,36.696,3.472e-10,73.393,30.422,31.564,29.28
61,66,2784.2,14250,70.469,671.78,-526.04,139.96,139.96,229.59,180.23,10.96,7.0726,13.793,3828.2,3438,4218.3,223.98,224.82,223.13,25.27,23.242,27.299
67,73,6939.8,18221,-217.06,669.14,-579.49,112.47,112.47,249.54,196.09,12.479,8.7009,15.354,5783,3684.8,7881.2,386.58,412.39,360.76,48.992,49.321,48.663
73,80,7914.8,18634,-66.31,671.73,-527.06,134.38,134.38,260.56,205.28,15.447,6.9818,20.699,4121.9,4049.3,4194.5,378.67,365.15,392.19,30.792,29.699,31.885
79,87,3732.9,17663,-43.976,665.81,-648.08,219.28,219.28,389.79,326.79,18.737,13.074,23.049,5609.7,4144,7075.3,224.4,225.19,223.62,23.391,21.685,25.098
85,91,23669,21916,-0.33424,669.94,-563.26,160.43,160.43,285.43,226.95,14.561,11.537,17.058,4658.9,3376.3,5941.5,430.24,395.89,464.6,29.946,29.282,30.611
91,96,2932,16204,298.75,670.43,-553.39,526.65,526.65,534.53,478.39,7.696,5.3997,9.4499,63492,81426,45559,73.652,6.2602e-09,147.3,31.108,29.71,32.507
97,101,1381.2,11193,-23.486,669.65,-569.16,136.82,136.82,253.18,199.1,14.767,7.4441,19.512,2691.9,3042.3,2341.6,174.35,159.48,189.23,20.12,22.688,17.553
103,107,16594,11025,-363.72,667.74,-608.14,147.21,147.21,338.26,276.05,14.975,7.6344,19.754,4936.2,3390.4,6482,429.66,396.62,462.7,24.633,22.428,26.838
109,116,6746,15354,-183.25,668.19,-599.02,124.27,124.27,267.8,211.47,21.677,20.229,23.035,2263.5,1073.5,3453.5,361.2,325.34,397.07,27.55,27.522,27.578
115,123,3850.8,13564,270.16,670.06,-560.74,327.51,327.51,374.11,311.11,16.774,14.343,18.896,8059.9,9197.4,6922.4,216.04,217.1,214.99,22.85,23.82,21.879
121,133,8018,17362,408.58,667.45,-614.25,239.68,239.68,235.38,184.72,14.493,10.549,17.573,9284.3,12703,5865.6,430.49,360.39,500.58,46.133,45.56,46.706
127,138,2922.5,15000,195.19,670.26,-556.71,215.67,215.67,289.38,230.49,14.237,12.031,16.145,4363.8,4378,4349.6,204.69,206.83,202.55,21.047,21.727,20.366
133,145,2964.6,15104,496.68,669.04,-581.5,472.97,472.97,387.46,324.46,11.127,9.8483,12.273,21076,30350,11801,158.77,119.58,197.96,23.882,25.616,22.148
139,151,17011,14895,-134.98,666.9,-625.57,274.1,274.1,506.38,448.12,13.575,12.813,14.296,14929,8607.3,21252,322.72,280.84,364.61,27.241,28.483,25.998
145,157,16222,6337.3,104.91,666.09,-642.32,303.43,303.43,434.01,371.92,10.561,10.028,11.068,14200,12312,16088,239.44,184.82,294.06,23.402,25.725,21.079
151,168,5115.8,14640,28.742,670.96,-542.48,127.07,127.07,220.17,173.18,25.164,25.078,25.249,1475.3,713.51,2237,387.9,333.97,441.83,25.412,21.682,29.142
157,170,13384,17482,-69.882,665.19,-661,132.51,132.51,258.11,203.21,16.765,5.6264,23.033,5080.4,6277.3,3883.5,422.93,366.56,479.31,35.896,38.219,33.573
163,178,10434,6826.5,366.2,672.77,-506.11,438.81,438.81,422.09,359.64,12.164,8.1383,15.156,21784,30894,12674,170.09,98.599,241.58,24.678,24.785,24.571
169,183,806.72,14802,-42.215,671.13,-539.12,130.76,130.76,247.58,194.48,12.497,6.951,16.25,3520.7,2981.1,4060.2,183.86,183.66,184.06,24.661,22.619,26.702
175,189,4605,19027,176.6,672.02,-521.3,513.28,513.28,613.37,564.64,10.048,8.2617,11.561,44498,49135,39861,100.14,56.603,143.67,27.58,29.499,25.662
181,194,21308,20944,31.518,672.38,-513.93,393.58,393.58,585.96,534.43,10.049,10.657,9.4023,48052,23894,72211,238.71,286.03,191.38,37.002,31.834,42.17
187,200,3589.2,18238,717.56,666.45,-634.74,586.6,586.6,391.47,328.48,11.725,6.0343,15.445,37816,65484,10148,96.185,4.8579e-10,192.37,22.42,21.185,23.654
193,208,12308,10241,293.65,663.77,-690.77,222.29,222.29,258.48,203.53,30.205,28.385,31.921,2062.8,1918.6,2207,360.92,319.67,402.17,24.009,21.624,26.393
199,215,16536,21691,-242.35,669.56,-571.06,276.26,276.26,544.83,489.54,12.25,13.457,10.911,25141,12240,38042,228.36,225.61,231.12,36.202,42.293,30.111
205,221,15389,11411,326.94,665.45,-655.58,605.89,605.89,579.1,526.9,9.3921,7.5698,10.914,72930,1.059e+05,39957,174.65,6.436,342.86,34.898,42.219,27.577
211,226,18833,14664,-83.085,665.32,-658.22,290.11,290.11,509.18,451.12,12.139,12.668,11.586,15983,7611.4,24354,220.07,191.92,248.22,22.834,22.044,23.625
217,229,15979,17392,25.48,664,-686.04,136.76,136.76,238.52,187.19,10.195,6.1994,13.016,5917.5,4338.9,7496,346.58,336.6,356.57,34.878,26.953,42.803
223,236,16439,9220.4,11.973,668.81,-586.27,134.72,134.72,239.08,187.63,12.006,4.8674,16.267,6508.1,8003.4,5012.8,417.3,359.61,474.99,38.123,40.617,35.63
229,240,18893,14519,-54.939,667.98,-603.32,191.14,191.14,351,288.38,13.502,13.148,13.847,7381.1,5105.6,9656.5,306.64,257.5,355.78,30.74,35.866,25.614
235,251,15266,16636,-345.06,670,-562.1,166.18,166.18,372.57,309.59,17.55,13.426,20.874,5376.2,2161.3,8591.1,340.16,314.78,365.55,25.353,20.179,30.527
241,257,14778,10270,222.44,667.98,-603.38,230.36,230.36,295.36,235.89,18.374,10.344,23.837,5298.7,6738.2,3859.3,370.03,306.67,433.4,25.556,25.202,25.91
247,261,22111,21050,197.54,671.38,-534.04,162.42,162.42,219.85,172.95,10.529,7.0926,13.093,6365.2,6649.7,6080.7,407.98,383,432.96,37.58,34.18,40.981
253,267,6812.2,13556,-116.66,670.69,-547.97,138.51,138.51,280.61,222.66,15.628,5.6581,21.364,4561.6,5126.3,3997,368.33,326.92,409.75,27.522,28.259,26.784
259,269,12372,16483,-95.236,668.37,-595.32,124.81,124.81,250.04,196.5,27.211,35.624,14.555,4035.2,657.57,7412.9,455.86,470.4,441.33,36.401,29.7,43.102
265,281,5231.7,16753,294.6,673.21,-497.34,279.31,279.31,316.45,255.36,27.074,28.762,25.274,3473.3,3147.3,3799.3,312.66,276.75,348.57,23.047,22.792,23.301
271,286,22120,21047,567.08,671.75,-526.66,388.1,388.1,306.31,245.92,11.181,7.598,13.868,21396,29121,13670,324.89,254.86,394.93,38.709,27.951,49.467
277,291,18048,10671,237.5,672.87,-504.19,448.01,448.01,506.29,448.03,12.585,7.7512,16.021,48337,64265,32409,199.27,49.748,348.79,46.612,48.196,45.029
283,299,4423.3,16508,127.96,668.14,-600.02,152.26,152.26,229.78,180.37,10.257,6.5084,12.964,9596,7681.1,11511,437.1,475.36,398.83,56.215,41.398,71.032
289,307,23352,21915,105.43,671.6,-529.72,153.26,153.26,239.18,187.72,18.797,9.6348,24.776,3993.8,4849.8,3137.8,483.28,445.18,521.39,36.36,38.595,34.125
295,312,21870,21743,921.05,672.05,-520.57,414.22,414.22,271.82,214.94,16.878,9.8002,21.764,16247,28685,3810.2,352.34,247.31,457.37,29.743,31.642,27.843
301,317,19273,21953,-43.086,671.62,-529.29,274.87,274.87,469.73,409.21,13.193,14.735,11.446,14230,7192.1,21267,373.4,341.23,405.56,25.828,27.286,24.369
307,320,21296,7673.7,103.71,672.43,-512.94,141.72,141.72,221.31,174.02,15.367,8.8627,19.843,2078.6,2424.2,1733,175.57,159.85,191.29,18.711,20.132,17.29
313,327,20659,14135,466.62,669.85,-565.01,274.97,274.97,249.3,195.89,13.39,10.725,15.607,4609.8,5424.1,3795.5,195.81,162.56,229.05,18.956,14.375,23.536
319,334,22250,21153,251.23,669.45,-573.27,219.52,219.52,271.68,214.83,17.222,19.725,14.288,5161.4,3028.8,7293.9,448.41,419.81,477.02,29.557,24.21,34.903
325,337,3337.9,17844,133.35,661.18,-745.72,240.11,240.11,344.6,282.17,13.012,14.827,10.897,7538.5,5760.5,9316.5,208.55,227.19,189.91,24.372,28.861,19.883
331,340,1915.6,8483.3,70.17,670.41,-553.67,136.46,136.46,223.72,175.8,11.907,8.7735,14.372,3234.3,2424.1,4044.4,189.63,190.2,189.05,25.162,21.561,28.764
337,345,2763.2,14386,-19.952,670.3,-555.87,144.07,144.07,264.63,208.75,8.8286,5.0454,11.421,8106.7,7363.5,8849.9,240.91,269.84,211.98,34.592,33.586,35.598
343,350,12992,8533.2,157.02,664.37,-678.26,294.42,294.42,396.73,333.79,16.052,16.36,15.738,10766,7009,14522,356.46,325.52,387.4,29.774,25.764,33.783
349,359,9198.9,7845.1,-293.59,672.92,-503.18,153.14,153.14,341.41,279.08,14.038,9.3398,17.518,7700.2,6934.8,8465.6,271.42,255.12,287.72,42.22,53.972,30.467
355,368,6590.7,13480,35.771,667.55,-612.19,167.78,167.78,284.98,226.54,14.75,16.755,12.424,7408.1,3967.5,10849,423.21,438.91,407.51,43.658,46.489,40.826
361,374,21850,21206,562.35,673.41,-493.32,388.78,388.78,308.09,247.57,15.59,13.55,17.392,16134,21649,10618,396.01,329.92,462.09,42.837,37.964,47.711
367,380,6597.2,19633,-352.24,667,-623.53,205.48,205.48,445.46,383.81,11.572,12.192,10.917,16448,9327.1,23569,245.51,251.79,239.23,40.984,52.881,29.087
373,386,14390,11688,101.21,666.62,-631.42,131.23,131.23,203.73,161.73,15.932,13.548,18.004,2952.4,2306.6,3598.2,422.94,399.8,446.08,37.029,35.413,38.644
379,389,22998,20678,203.86,671.59,-529.85,168.84,168.84,226.67,178.01,9.895,7.0365,12.096,9291.7,9068.6,9514.8,386.77,368.2,405.35,49.607,43.167,56.047
385,395,19960,20947,6.0761,670.36,-554.68,512.7,512.7,751.18,719.45,6.5058,5.8786,7.0776,90861,63179,1.1854e+05,73.954,54.109,93.798,27.974,26.428,29.521
391,402,3106.4,17826,-239.48,670.71,-547.62,138.79,138.79,305.86,245.51,12.895,10.592,14.845,4990.4,2317.8,7663,220.6,245.93,195.26,26.976,24.421,29.531
397,406,17677,17218,276.15,666.12,-641.67,196.18,196.18,235.25,184.62,12.159,11.365,12.905,6136.5,5243.4,7029.5,310.77,282.05,339.49,35.421,29.974,40.868
403,413,15235,11377,-140.66,669.55,-571.13,124.56,124.56,259.83,204.67,16.901,11.664,20.863,2711.3,1811.8,3610.8,351.37,335.76,366.98,27.01,26.253,27.767
409,416,11394,16630,501.04,664.73,-670.56,267.22,267.22,232.33,182.34,19.396,15.019,22.953,4606.2,6518.6,2693.7,330.47,284.18,376.76,27.667,26.668,28.666
415,424,6673.3,15184,709.35,673.32,-495.26,301.08,301.08,215.02,169.46,19.79,15.227,23.482,4761.1,7277.7,2244.4,344.78,295.85,393.71,26.064,23.716,28.413
421,427,20427,21527,-270.74,669.94,-563.28,114.32,114.32,261.3,205.91,15.639,6.5965,21.11,3968.9,3239,4698.8,461.35,437.5,485.19,33.627,30.961,36.292
427,430,17851,8041.4,310.32,670.15,-558.94,354.02,354.02,378.86,315.85,16.386,16.834,15.926,12481,13931,11030,234.37,177.04,291.7,32.684,36.724,28.645
433,437,4033.7,14724,19.473,669.81,-565.93,384.69,384.69,582.51,530.65,9.8839,12.295,6.6501,53070,25836,80304,176.21,234.88,117.54,37.458,41.993,32.923
439,442,7097.9,19361,430.57,671.7,-527.63,292.07,292.07,275.67,218.31,16.145,14.848,17.344,9321.2,10606,8036.2,309.02,238.88,379.17,40.877,36.14,45.613
445,447,7277.1,16129,344.52,662.58,-715.99,197.1,197.1,211.34,166.88,17.736,12.265,21.88,6014.7,8269.8,3759.5,376.71,340.26,413.16,48.648,51.241,46.054
451,453,5654.9,15642,219.35,666.66,-630.52,205.46,205.46,267.74,211.41,19.427,14.963,23.042,4108.8,4932.4,3285.3,380.98,356.99,404.98,30.212,34.19,26.234
457,463,21189,20716,107.34,670.41,-553.61,239.71,239.71,355.51,292.78,14.425,12.045,16.465,11118,7283,14953,293.17,300.81,285.54,38.084,29.601,46.568
463,465,23421,20802,32.223,664.3,-679.66,156.37,156.37,268.58,212.14,17.941,17.215,18.639,4204.2,3118,5290.5,408.21,359.83,456.59,38.579,43.182,33.975
469,475,12833,15188,100.07,672.78,-505.98,212.72,212.72,324.14,262.59,29.001,27.942,30.023,3302.7,2521.4,4083.9,439.83,398.31,481.35,29.545,30.692,28.397
475,482,3348.4,17788,-332.66,671.35,-534.76,226.02,226.02,479.05,419.05,12.54,15.054,9.3747,16033,7589.2,24476,188.15,225.15,151.16,32.82,43.934,21.705
481,492,19179,20901,-341.86,670.67,-548.46,186.19,186.19,409.19,346.44,12.202,11.218,13.113,10859,6621.7,15096,279.78,288.88,270.69,34.45,41.822,27.078
487,498,2690.2,20065,-32.793,669.4,-574.27,120.27,120.27,225.25,176.95,11.945,9.5856,13.91,2765.6,1679.5,3851.8,186.06,196.1,176.01,23.57,21.07,26.071
493,502,22121,21375,320.46,672.4,-513.53,276.22,276.22,302.72,242.62,15.338,15.639,15.032,10118,8514.9,11721,402.02,379.14,424.9,40.67,34.163,47.176
499,509,6526.2,15392,-391.54,661.96,-729.12,128.45,128.45,303.06,242.93,13.484,6.8063,17.814,4922.8,3825,6020.7,368.27,351.68,384.86,29.192,29.897,28.487
505,518,3280.8,6422.6,-188.7,665.48,-655.02,162.04,162.04,339.12,276.88,20.948,24.511,16.64,3692.1,1159.3,6224.9,188.38,190.53,186.23,21.277,21.162,21.392
511,524,2528.4,15461,-405.91,672.02,-521.23,124.15,124.15,295.15,235.7,13.185,11.264,14.86,2933.8,1218.4,4649.2,195.71,205.59,185.83,17.96,16.801,19.119
517,528,7966.2,16231,920.04,671.52,-531.32,338.89,338.89,223.83,175.88,16.776,10.151,21.444,8525.7,13880,3171.5,359.03,278.01,440.06,28.721,23.461,33.981
523,533,6969.6,14318,660.8,672.87,-504.2,331.84,331.84,246.08,193.26,11.591,10.605,12.5,10638,13494,7781.9,349.23,290.76,407.69,32.469,24.955,39.982
529,540,16679,10976,-189.92,664.61,-673.18,160.14,160.14,335.98,273.87,18.255,18.096,18.414,4823.2,1944.1,7702.3,401.16,394.43,407.88,28.492,26.79,30.194
535,545,5721,16344,-40.963,664.48,-675.83,150.11,150.11,280.92,222.93,18.948,19.043,18.852,3455.6,2721.3,4189.9,396.93,423.21,370.66,34.974,45.33,24.617
541,548,7218.2,15545,-296.84,670.45,-552.86,119.69,119.69,275.84,218.46,12.278,5.7073,16.399,5709.4,6339,5079.7,399.12,372.99,425.25,37.724,48.495,26.952
547,550,3119.4,17821,-289.16,668.69,-588.63,125.86,125.86,287.58,228.87,14.44,12.04,16.494,3097.9,1605.6,4590.2,213.49,234.79,192.2,22.888,23.453,22.324
553,558,19280,14749,-266.31,663.83,-689.42,132.99,132.99,298.72,238.95,8.9509,6.2197,11.025,10178,8266.3,12089,287.03,249.4,324.66,46.302,56.286,36.318
559,563,14260,16803,89.433,673.08,-499.98,143.39,143.39,228.95,179.74,12.583,5.2231,17.011,6029.5,7723.7,4335.2,399.45,366.26,432.65,36.121,37.1,35.143
565,572,14835,9283.9,-69.429,672.98,-502.07,130.38,130.38,254.08,199.85,15.116,11.17,18.227,3072.8,2217.4,3928.2,406.19,360.02,452.36,27.839,28.113,27.564
571,579,3146.8,14185,423.34,666.23,-639.34,354.96,354.96,329.8,267.97,12.778,10.522,14.692,13464,19854,7073.2,176.2,139.89,212.52,27.432,32.104,22.76
577,583,5600.3,14159,-297.98,669.11,-580.04,185.15,185.15,401.01,338.12,15.621,8.3257,20.462,9566.9,7837.8,11296,350.62,318.67,382.57,35.117,36.724,33.509
583,592,1389.9,11190,-122.16,668.53,-592.03,118.69,118.69,244.26,191.79,16.776,7.7606,22.42,1789,1518.6,2059.3,178.31,164.94,191.68,17.233,15.267,19.2
589,601,20576,21004,-100.2,664.15,-682.69,264.34,264.34,478.29,418.24,15.575,17.143,13.831,14664,7576,21752,318.59,349.28,287.89,32.873,36.48,29.266
595,606,21010,21176,-248.23,667.56,-611.98,374.49,374.49,704.01,665.97,8.7918,10.544,6.5885,74212,22869,1.2555e+05,169.58,247.98,91.178,33.488,33.332,33.644
601,614,3198.1,15410,-377.56,663.05,-705.99,252.46,252.46,531.87,475.52,11.349,13.178,9.1612,16288,5674.3,26902,191.18,235.58,146.78,20.468,22.623,18.313
607,620,3961.3,16590,-91.141,669.85,-565.07,123.46,123.46,246.47,193.57,18.023,19.788,16.064,3178.6,1288,5069.2,287.46,298.13,276.79,33.113,32.818,33.409
613,623,2837.9,16986,425.26,661.64,-735.88,289.5,289.5,275.29,217.97,13.158,14.233,11.987,6734.6,7103,6366.2,180.13,177.56,182.69,23.926,23.342,24.51
619,628,3428.1,16632,-3.3663,669.71,-567.98,239.78,239.78,403.33,340.47,9.406,7.9487,10.666,13999,11506,16493,238.96,253.44,224.48,27.513,30.432,24.594
625,639,11072,19366,318.35,670.64,-549.01,318.73,318.73,343.25,280.86,13.201,14.817,11.356,15878,15673,16083,294.9,253.01,336.78,40.904,44.916,36.893
631,642,13215,16739,69.205,667.9,-604.82,139.29,139.29,228.88,179.69,18.95,7.2852,25.79,2655.3,3128.9,2181.7,380.9,348.78,413.03,24.427,21.96,26.893
637,644,17226,12976,-292.37,662.57,-716.2,180.75,180.75,392.19,329.21,12.093,5.9584,16.031,7838.3,5957.5,9719.1,291.81,257.87,325.74,21.66,19.882,23.437
643,648,18297,8645.3,-374.49,661.92,-729.99,132.89,132.89,310.78,250.06,9.0477,3.5448,12.294,7574.9,6507.1,8642.7,266.29,232.15,300.42,24.681,22.92,26.441
649,655,2010.3,15495,7.5371,668.72,-588.17,125.52,125.52,223.74,175.81,12.605,6.7333,16.506,2761.3,2495,3027.6,193.76,197.26,190.26,22.182,19.647,24.716
655,665,17195,13377,330.3,661.14,-746.46,270.15,270.15,292.98,233.73,21.192,15.836,25.445,4466.2,5185.7,3746.7,325.36,288.84,361.88,24.584,21.798,27.371
661,669,17221,8332.1,151.36,666.7,-629.62,285.69,285.69,389.7,326.7,13.905,12.192,15.429,9657.7,7656.3,11659,301.28,262.26,340.31,24.748,21.971,27.526
667,673,3135.7,17583,532.02,663.75,-691.22,374.21,374.21,306.69,246.27,13.4,10.281,15.919,9261.7,13512,5011.1,184.34,170.96,197.72,19.606,18.788,20.424
673,678,15207,10513,77.805,673.14,-498.89,167.81,167.81,270.58,213.87,20.319,11.564,26.305,3937.8,4641.9,3233.7,409.23,363.95,454.51,33.029,37.125,28.933
679,682,19388,22003,342.79,668.8,-586.56,312.21,312.21,326.71,265.02,19.198,18.305,20.051,6767.6,6258.8,7276.5,374.92,340.96,408.89,27.997,22.889,33.105
685,689,3742.6,17049,245.79,672.18,-518.06,407.88,407.88,463.44,402.6,14.473,11.704,16.791,15406,13490,17323,202.18,186.28,218.08,24.274,18.054,30.494
691,700,17078,12037,138.05,670.19,-558.16,216.71,216.71,313.79,252.87,16.015,17.401,14.496,6616.3,3470.1,9762.5,335.62,289.36,381.87,29.966,25.058,34.874
697,708,11495,17550,-224.98,665.26,-659.57,223.28,223.28,452.68,391.34,16.054,16.272,15.833,10211,6455.3,13966,355.62,339.64,371.6,32.83,41.402,24.257
703,717,5440.7,12152,-27.289,664.72,-670.75,149.31,149.31,275.61,218.25,7.7153,6.322,8.893,13427,11765,15089,266.9,299.89,233.9,54.118,64.888,43.348
709,729,16809,7414,9.298,671.17,-538.37,110.27,110.27,191.48,154.12,19.818,10.902,25.819,1194.4,1059,1329.8,282.83,252.14,313.51,20.371,17.934,22.808
715,734,20142,21283,-195.09,669.75,-567.18,153.06,153.06,324.32,262.77,13.012,10.753,14.933,7149.3,5328,8970.7,410.06,391.33,428.8,39.243,47.812,30.674
721,738,10517,6747.6,275.96,664.87,-667.71,307.79,307.79,352.39,289.73,10.396,8.3757,12.083,15802,18785,12818,206.78,179.05,234.52,30.659,31.904,29.415
727,745,8501.8,10767,86.813,672.29,-515.79,382.62,382.62,537.34,481.43,11.052,11.917,10.114,42401,25300,59501,157.96,185.39,130.53,42.816,40.23,45.402
733,750,3391.7,16663,727.34,665.3,-658.82,547.91,547.91,367.95,305.01,7.7635,6.2533,9.0245,55989,92321,19656,114.38,3.3702e-08,228.75,33.559,36.725,30.393
739,752,15066,7413.2,6.5512,672.14,-518.71,120.01,120.01,213.38,168.3,20.927,10.66,27.609,1683.1,1623.5,1742.8,343.33,304.22,382.44,24.656,22.957,26.354
745,756,23001,21341,226.18,663.46,-697.25,207.8,207.8,267.89,211.55,20.157,16.658,23.133,3623.6,3864.6,3382.7,347.64,300.04,395.24,28.111,29.121,27.102
751,760,18954,13788,63.39,661.83,-731.82,108.19,108.19,157.35,140.7,23.64,13.095,30.76,897.08,892.22,901.93,253.07,216.08,290.07,21.867,19.077,24.657
757,767,2656.9,16924,174.39,669.25,-577.27,159.41,159.41,223.93,175.95,10.669,8.8922,12.189,9189.3,6072.9,12306,275.63,335.51,215.74,58.157,41.217,75.097
763,770,10081,7371.6,-3.8517,667.25,-618.4,137.83,137.83,249.22,195.83,9.4355,6.8124,11.474,5898.9,5794.6,6003.2,268.14,272.44,263.85,33.574,39.894,27.254
769,776,12983,15204,12.238,664.36,-678.33,160.77,160.77,281.95,223.85,12.273,7.4178,15.692,5995.2,5849.2,6141.1,429.84,390.98,468.7,30.936,32.065,29.806
775,782,20955,14640,42.363,672.12,-519.17,123.29,123.29,208.64,165.01,11.723,6.8151,15.113,2404.2,2009.1,2799.3,205.1,205.72,204.49,20.088,16.351,23.826
